#ZDDP al 2% sobre aceite mineral base.
#doi https://doi.org/10.1007/s11249-018-1070-6
899.5028997514, 0.9837286012
899.8342999171, 0.9837297297
900.1657000828, 0.9837308583
900.4971002486, 0.9837319868
900.8285004143, 0.9837331154
901.15990058, 0.9837342438
901.4913007457, 0.9837353725
901.8227009114, 0.983736501
902.1541010771, 0.9837376296
902.4855012428, 0.9838901094
902.8169014085, 0.983891238
903.1483015742, 0.9838923666
903.4797017398, 0.9838934952
903.8111019056, 0.9838946237
904.1425020713, 0.9838957523
904.473902237, 0.9838968808
904.8053024027, 0.9838980094
905.1367025684, 0.9838991379
905.4681027341, 0.9839002665
905.7995028998, 0.983901395
906.1309030655, 0.9839025235
906.4623032312, 0.9837523008
906.7937033969, 0.9837534293
907.1251035626, 0.9837545579
907.4565037283, 0.9836043351
907.787903894, 0.9836054636
908.1193040597, 0.9834552408
908.4507042254, 0.9834563694
908.782104391, 0.9834574979
909.1135045568, 0.9834586265
909.4449047225, 0.983459755
909.7763048881, 0.9834608835
910.1077050539, 0.9834620121
910.4391052196, 0.9834631407
910.7705053853, 0.9834642692
911.101905551, 0.9834653977
911.4333057167, 0.9834665263
911.7647058824, 0.9834676549
912.0961060481, 0.9834687834
912.4275062138, 0.9833185606
912.7589063795, 0.9833196892
913.0903065452, 0.9833208178
913.4217067109, 0.983170595
913.7531068766, 0.9831717235
914.0845070423, 0.9831728521
914.415907208, 0.9831739806
914.7473073737, 0.9831751091
915.0787075394, 0.9831762377
915.4101077051, 0.9831773663
915.7415078708, 0.9831784948
916.0729080364, 0.9831796233
916.4043082022, 0.9831807519
916.7357083679, 0.9831818805
917.0671085336, 0.983183009
917.3985086993, 0.9831841376
917.729908865, 0.9830339148
918.0613090307, 0.9830350433
918.3927091964, 0.9830361719
918.7241093621, 0.9830373004
919.0555095278, 0.983038429
919.3869096935, 0.9828882062
919.7183098592, 0.9828893346
920.0497100249, 0.9828904633
920.3811101906, 0.9828915918
920.7125103563, 0.9828927204
921.043910522, 0.9828938488
921.3753106876, 0.9828949775
921.7067108534, 0.982896106
922.0381110191, 0.9828972346
922.3695111848, 0.9830497145
922.7009113505, 0.9830508431
923.0323115162, 0.9830519716
923.3637116819, 0.9830531002
923.6951118476, 0.9830542287
924.0265120133, 0.9830553573
924.357912179, 0.9830564858
924.6893123447, 0.9830576143
925.0207125104, 0.9830587429
925.3521126761, 0.9830598715
925.6835128418, 0.983061
926.0149130075, 0.9829107771
926.3463131732, 0.9829119058
926.6777133388, 0.9829130343
927.0091135046, 0.9827628115
927.3405136703, 0.9827639401
927.6719138359, 0.9826137173
928.0033140017, 0.9824634945
928.3347141674, 0.9823132717
928.6661143331, 0.9823144002
928.9975144988, 0.9821641774
929.3289146645, 0.982165306
929.3289146645, 0.9820139546
929.6603148302, 0.9820150831
929.9917149959, 0.9820162117
930.3231151616, 0.9818659889
930.6545153273, 0.9818671175
930.985915493, 0.981868246
931.3173156587, 0.9818693746
931.6487158244, 0.9818705031
931.98011599, 0.9818716317
932.3115161558, 0.9818727602
932.6429163215, 0.9818738888
932.9743164871, 0.9818750174
933.3057166529, 0.9818761459
933.6371168186, 0.9818772745
933.9685169842, 0.981878403
934.29991715, 0.9818795316
934.6313173157, 0.98188066
934.9627174814, 0.98203314
935.2941176471, 0.9820342686
935.6255178128, 0.9820353971
935.9569179785, 0.9821878769
936.2883181442, 0.9821890056
936.6197183099, 0.9821901341
936.9511184756, 0.9821912627
937.2825186413, 0.9821923912
937.613918807, 0.9821935198
937.9453189727, 0.9821946483
938.2767191384, 0.9821957769
938.6081193041, 0.9821969054
938.9395194698, 0.982198034
939.2709196354, 0.9821991625
939.6023198012, 0.982200291
939.9337199669, 0.9822014196
940.2651201326, 0.9822025482
940.5965202983, 0.9820523254
940.927920464, 0.9820534539
941.2593206297, 0.9820545825
941.5907207954, 0.9820557111
941.9221209611, 0.9820568396
942.2535211268, 0.9819066168
942.5849212925, 0.9819077454
942.9163214582, 0.9819088739
943.2477216239, 0.9819100025
943.5791217896, 0.981911131
943.9105219553, 0.9817609082
944.241922121, 0.9817620368
944.5733222866, 0.9817631652
944.9047224524, 0.9817642939
945.2361226181, 0.9817654224
945.5675227837, 0.981766551
945.8989229495, 0.9817676794
946.2303231152, 0.9817688081
946.5617232809, 0.9816185853
946.8931234466, 0.9816197138
947.2245236123, 0.9816208424
947.555923778, 0.9814706196
947.8873239437, 0.9814717481
948.2187241094, 0.9814728767
948.5501242751, 0.9814740052
948.8815244408, 0.9813237824
949.2129246065, 0.981324911
949.2129246065, 0.9811735596
949.5443247722, 0.9811746881
949.8757249378, 0.9811758167
949.8757249378, 0.9810244654
950.2071251036, 0.9808742426
950.5385252693, 0.9808753711
950.8699254349, 0.9807251483
951.2013256007, 0.9805749255
951.5327257664, 0.9804247027
951.864125932, 0.9802744799
952.1955260978, 0.9801242571
952.5269262635, 0.9799740343
952.8583264292, 0.9798238115
953.1897265949, 0.9796735887
953.5211267606, 0.979523366
953.8525269263, 0.9793731432
954.183927092, 0.9793742717
954.5153272577, 0.9792240489
954.8467274234, 0.9790738261
955.1781275891, 0.9789236033
955.1781275891, 0.978772252
955.5095277548, 0.9787733804
955.8409279205, 0.9786231577
955.8409279205, 0.9784718064
955.8409279205, 0.978320455
956.1723280862, 0.9783215836
956.1723280862, 0.9781702322
956.1723280862, 0.9780188809
956.5037282519, 0.9778686581
956.8351284176, 0.9777184353
956.8351284176, 0.9775670839
957.1665285833, 0.9774168611
957.497928749, 0.9772666383
957.497928749, 0.977115287
957.8293289147, 0.9769650641
957.8293289147, 0.9768137127
958.1607290804, 0.97666349
958.4921292461, 0.9765132672
958.4921292461, 0.9763619159
958.8235294118, 0.9762116931
958.8235294118, 0.9760603417
959.1549295775, 0.9759101189
959.1549295775, 0.9757587675
959.4863297432, 0.9756085448
959.4863297432, 0.9754571934
959.8177299089, 0.9753069706
959.8177299089, 0.9751556192
960.1491300746, 0.9750053963
960.1491300746, 0.974854045
960.1491300746, 0.9747026936
960.4805302403, 0.9745524709
960.4805302403, 0.9744011196
960.811930406, 0.9742508968
960.811930406, 0.9740995454
961.1433305717, 0.9739493226
961.1433305717, 0.9737979713
961.4747307374, 0.9736477485
961.4747307374, 0.9734963971
961.8061309031, 0.9734975257
962.1375310688, 0.9733473029
962.4689312345, 0.9733484314
962.8003314002, 0.9731982086
963.1317315659, 0.9731993372
963.4631317315, 0.9733518171
963.7945318973, 0.9733529456
964.125932063, 0.9733540742
964.4573322287, 0.9733552028
964.7887323944, 0.9733563313
965.1201325601, 0.9733574598
965.4515327258, 0.9733585884
965.7829328915, 0.973359717
966.1143330572, 0.9733608455
966.4457332229, 0.9733619741
966.7771333886, 0.9732117513
967.1085335543, 0.9732128798
967.43993372, 0.973062657
967.7713338857, 0.9730637856
968.1027340514, 0.9730649141
968.4341342171, 0.9729146913
968.7655343827, 0.9729158198
968.7655343827, 0.9727644684
969.0969345485, 0.9727655971
969.4283347142, 0.9727667256
969.7597348798, 0.9726165028
970.0911350456, 0.9726176314
970.4225352113, 0.9724674086
970.753935377, 0.9724685371
971.0853355427, 0.9724696657
971.4167357084, 0.9723194429
971.7481358741, 0.9723205714
972.0795360398, 0.9721703486
972.4109362055, 0.9721714771
972.7423363712, 0.9721726057
973.0737365369, 0.9720223829
973.4051367026, 0.9720235115
973.7365368683, 0.9718732887
974.067937034, 0.9718744173
974.3993371997, 0.9718755458
974.7307373654, 0.971725323
975.0621375311, 0.9717264516
975.3935376968, 0.9715762288
975.7249378625, 0.9715773573
976.0563380282, 0.9715784858
976.3877381939, 0.9715796144
976.7191383596, 0.971580743
977.0505385253, 0.9715818715
977.381938691, 0.971583
977.7133388567, 0.97173548
978.0447390224, 0.9717366085
978.0447390224, 0.9718879599
978.3761391881, 0.9720404398
978.7075393538, 0.9721929196
979.0389395195, 0.9723453996
979.3703396852, 0.9724978795
979.7017398509, 0.9726503594
980.0331400166, 0.9728028392
980.3645401823, 0.9729553192
980.695940348, 0.9731077991
981.0273405137, 0.9731089277
981.3587406793, 0.9732614076
981.6901408451, 0.9732625361
982.0215410108, 0.973415016
982.3529411765, 0.9734161446
982.6843413422, 0.9734172731
983.0157415079, 0.9734184017
983.3471416736, 0.9734195302
983.6785418393, 0.9734206587
984.009942005, 0.9734217873
984.3413421707, 0.9734229159
984.6727423364, 0.9734240444
985.0041425021, 0.9734251729
985.3355426678, 0.9734263015
985.6669428335, 0.9734274301
985.9983429992, 0.9734285586
986.3297431649, 0.9734296872
986.6611433305, 0.9734308157
986.9925434963, 0.9732805929
987.323943662, 0.9732817215
987.6553438276, 0.9731314987
987.9867439934, 0.9731326272
988.3181441591, 0.9731337558
988.6495443248, 0.9731348842
988.9809444905, 0.9729846615
989.3123446562, 0.9729857901
989.6437448219, 0.9728355673
989.9751449876, 0.9728366958
990.3065451533, 0.9728378244
990.637945319, 0.9726876016
990.9693454847, 0.9725373788
991.3007456504, 0.9725385074
991.6321458161, 0.9723882846
991.9635459817, 0.9722380618
992.2949461475, 0.9722391902
992.6263463132, 0.9720889675
992.9577464788, 0.9719387447
993.2891466446, 0.9717885219
993.6205468103, 0.971638299
993.6205468103, 0.9714869478
993.951946976, 0.971336725
994.2833471417, 0.9711865022
994.6147473074, 0.9710362794
994.6147473074, 0.970884928
994.9461474731, 0.9707347052
994.9461474731, 0.9705833539
994.9461474731, 0.9704320025
995.2775476388, 0.9702817797
995.2775476388, 0.9701304284
995.6089478045, 0.9699802056
995.6089478045, 0.9698288542
995.9403479702, 0.9696786313
996.2717481359, 0.9695284086
996.2717481359, 0.9693770573
996.6031483016, 0.9692268345
996.9345484673, 0.9690766117
997.265948633, 0.9689263889
997.265948633, 0.9687750375
997.5973487987, 0.9686248147
997.9287489644, 0.9684745919
997.9287489644, 0.9683232406
998.2601491301, 0.9681730177
998.5915492958, 0.968022795
998.9229494615, 0.9678725722
999.2543496271, 0.9677223494
999.2543496271, 0.967570998
999.5857497929, 0.9675721266
999.9171499586, 0.9674219038
999.9171499586, 0.9672705524
1000.2485501243, 0.967271681
1000.57995029, 0.9671214581
1000.57995029, 0.9669701067
1000.9113504557, 0.966819884
1001.2427506214, 0.9666696612
1001.5741507871, 0.9665194384
1001.9055509528, 0.9663692155
1001.9055509528, 0.9662178643
1002.2369511185, 0.9660676415
1002.5683512842, 0.9659174187
1002.5683512842, 0.9657660673
1002.8997514499, 0.9656158445
1003.2311516156, 0.9654656217
1003.2311516156, 0.9653142704
1003.5625517813, 0.9651640476
1003.5625517813, 0.9650126962
1003.893951947, 0.9648624734
1003.893951947, 0.9647111221
1004.2253521127, 0.9645608992
1004.5567522783, 0.9644106765
1004.5567522783, 0.9642593251
1004.8881524441, 0.9641091023
1005.2195526098, 0.9639588795
1005.5509527754, 0.9638086567
1005.8823529412, 0.9636584339
1006.2137531069, 0.9636595625
1006.5451532726, 0.9636606909
1006.8765534383, 0.9636618196
1007.207953604, 0.9636629481
1007.5393537697, 0.9636640767
1007.8707539354, 0.9638165565
1008.2021541011, 0.9638176851
1008.5335542668, 0.963970165
1008.8649544325, 0.9639712936
1009.1963545982, 0.9639724221
1009.5277547639, 0.964124902
1009.8591549295, 0.9641260306
1010.1905550953, 0.9642785105
1010.521955261, 0.964279639
1010.8533554266, 0.9642807676
1011.1847555924, 0.9642818961
1011.5161557581, 0.964434376
1011.8475559237, 0.9644355046
1012.1789560895, 0.9644366332
1012.5103562552, 0.9645891131
1012.8417564209, 0.9645902415
1013.1731565866, 0.9647427215
1013.5045567523, 0.9648952014
1013.835956918, 0.9650476813
1014.1673570837, 0.9652001611
1014.4987572494, 0.9653526411
1014.8301574151, 0.965505121
1015.1615575808, 0.9656576009
1015.4929577465, 0.9658100807
1015.8243579122, 0.9659625607
1016.1557580779, 0.9661150406
1016.4871582436, 0.9662675205
1016.8185584093, 0.9664200003
1017.149958575, 0.9665724804
1017.4813587407, 0.9667249603
1017.8127589064, 0.9667260888
1018.1441590721, 0.9668785686
1018.4755592378, 0.9670310486
1018.8069594035, 0.9670321772
1019.1383595692, 0.9671846571
1019.4697597349, 0.9671857856
1019.8011599006, 0.9673382655
1020.1325600663, 0.9673393941
1020.463960232, 0.967491874
1020.7953603977, 0.9676443539
1021.1267605634, 0.9677968338
1021.4581607291, 0.9679493137
1021.7895608948, 0.9681017936
1022.1209610605, 0.9682542735
1022.4523612262, 0.9684067534
1022.7837613919, 0.9685592333
1023.1151615576, 0.9687117132
1023.4465617232, 0.9688641931
1023.777961889, 0.9688653217
1024.1093620547, 0.9690178016
1024.4407622204, 0.9691702814
1024.7721623861, 0.9693227614
1025.1035625518, 0.9693238899
1025.4349627175, 0.9694763698
1025.7663628832, 0.9696288496
1026.0977630489, 0.9697813296
1026.4291632146, 0.9697824582
1026.7605633803, 0.9699349381
1027.091963546, 0.9700874179
1027.4233637117, 0.9702398979
1027.7547638773, 0.9703923778
1028.0861640431, 0.9705448577
1028.4175642088, 0.9706973375
1028.7489643744, 0.9706984662
1029.0803645402, 0.9708509461
1029.4117647059, 0.971003426
1029.7431648715, 0.9711559059
1030.0745650373, 0.9713083858
1030.405965203, 0.9714608657
1030.7373653687, 0.9714619942
1031.0687655344, 0.9716144741
1031.4001657001, 0.971766954
1031.7315658658, 0.9719194339
1032.0629660315, 0.9720719138
1032.3943661972, 0.9722243937
1032.7257663629, 0.9722255223
1033.0571665286, 0.9723780022
1033.3885666943, 0.9725304821
1033.71996686, 0.972682962
1034.0513670257, 0.9728354419
1034.3827671914, 0.9728365705
1034.7141673571, 0.9729890504
1035.0455675228, 0.9729901789
1035.3769676885, 0.9729913075
1035.7083678542, 0.9731437874
1036.0397680199, 0.9731449158
1036.3711681856, 0.9731460445
1036.7025683513, 0.973147173
1037.033968517, 0.9731483016
1037.3653686827, 0.97314943
1037.6967688484, 0.97330191
1038.0281690141, 0.9733030386
1038.3595691798, 0.9734555185
1038.6909693455, 0.973456647
1039.0223695112, 0.9736091269
1039.3537696769, 0.9737616068
1039.6851698426, 0.9737627354
1040.0165700083, 0.9737638639
1040.347970174, 0.9739163439
1040.6793703397, 0.9739174724
1041.0107705054, 0.973918601
1041.342170671, 0.9739197295
1041.6735708368, 0.9739208581
1042.0049710025, 0.9739219866
1042.3363711682, 0.9739231151
1042.6677713339, 0.9739242437
1042.9991714996, 0.9739253723
1043.3305716653, 0.9739265008
1043.661971831, 0.9739276293
1043.9933719967, 0.9739287579
1044.3247721624, 0.9739298865
1044.6561723281, 0.973931015
1044.9875724938, 0.9739321436
1045.3189726595, 0.9739332721
1045.6503728251, 0.9739344007
1045.9817729909, 0.9739355292
1046.3131731566, 0.9739366578
1046.6445733222, 0.9739377863
1046.975973488, 0.9739389149
1047.3073736537, 0.9739400433
1047.6387738193, 0.973941172
1047.9701739851, 0.9739423005
1048.3015741508, 0.9740947804
1048.6329743165, 0.9740959089
1048.9643744822, 0.9740970376
1049.2957746479, 0.9742495175
1049.6271748136, 0.974250646
1049.9585749793, 0.9742517746
1050.289975145, 0.9744042545
1050.6213753107, 0.974405383
1050.9527754764, 0.9744065116
1051.2841756421, 0.9742562888
1051.6155758078, 0.9742574173
1051.9469759734, 0.9742585459
1052.2783761392, 0.9742596744
1052.6097763049, 0.974260803
1052.9411764705, 0.9742619315
1053.2725766363, 0.9742630601
1053.603976802, 0.9744155399
1053.9353769677, 0.9744166685
1054.2667771334, 0.9745691484
1054.5981772991, 0.974570277
1054.9295774648, 0.9747227568
1055.2609776305, 0.9748752368
1055.2609776305, 0.9750265881
1055.5923777962, 0.975179068
1055.9237779619, 0.975331548
1056.2551781276, 0.9754840278
1056.5865782933, 0.9756365078
1056.917978459, 0.9757889877
1056.917978459, 0.975940339
1057.2493786247, 0.9760928189
1057.5807787904, 0.9762452987
1057.5807787904, 0.9763966501
1057.5807787904, 0.9765480014
1057.5807787904, 0.9766993528
1057.9121789561, 0.9767004814
1058.2435791218, 0.9768529613
1058.5749792875, 0.9770054412
1058.9063794532, 0.9770065698
1059.2377796188, 0.9771590497
1059.5691797846, 0.9773115296
1059.9005799503, 0.9773126581
1060.231980116, 0.9773137867
1060.5633802817, 0.9773149152
1060.8947804474, 0.9774673951
1061.2261806131, 0.9776198751
1061.5575807788, 0.9776210036
1061.8889809445, 0.9776221322
1062.2203811102, 0.9777746121
1062.5517812759, 0.9777757406
1062.8831814416, 0.9779282205
1063.2145816073, 0.9779293491
1063.5459817729, 0.978081829
1063.5459817729, 0.9782331803
1063.8773819387, 0.9783856601
1064.2087821044, 0.9783867888
1064.2087821044, 0.9785381401
1064.54018227, 0.97869062
1064.54018227, 0.9788419714
1064.8715824358, 0.9789944513
1065.2029826015, 0.9791469311
1065.5343827671, 0.9792994111
1065.8657829329, 0.979451891
1066.1971830986, 0.9794530195
1066.5285832643, 0.9796054994
1066.85998343, 0.979606628
1067.1913835957, 0.9796077566
1067.5227837614, 0.9796088851
1067.8541839271, 0.9796100137
1068.1855840928, 0.9794597909
1068.5169842585, 0.9794609194
1068.8483844242, 0.979462048
1069.1797845899, 0.9794631765
1069.5111847556, 0.9794643051
1069.8425849212, 0.9794654336
1070.173985087, 0.9794665621
1070.5053852527, 0.9794676907
1070.8367854183, 0.9794688193
1071.1681855841, 0.9794699478
1071.4995857498, 0.9794710763
1071.8309859155, 0.9794722049
1072.1623860812, 0.9794733335
1072.4937862469, 0.979474462
1072.8251864126, 0.9794755906
1073.1565865783, 0.9794767191
1073.487986744, 0.9794778477
1073.8193869097, 0.9794789762
1074.1507870754, 0.9794801048
1074.4821872411, 0.9794812333
1074.8135874068, 0.9794823619
1075.1449875725, 0.9794834904
1075.4763877382, 0.979484619
1075.8077879039, 0.9794857476
1076.1391880696, 0.9794868761
1076.4705882353, 0.9794880046
1076.801988401, 0.9794891332
1077.1333885666, 0.9796416131
1077.4647887324, 0.9796427417
1077.7961888981, 0.9796438701
1078.1275890638, 0.9797963501
1078.4589892295, 0.9797974787
1078.7903893952, 0.9799499586
1079.1217895609, 0.9799510871
1079.4531897266, 0.9799522157
1079.7845898923, 0.9801046956
1080.115990058, 0.9802571755
1080.4473902237, 0.980258304
1080.7787903894, 0.9802594326
1081.1101905551, 0.9802605611
1081.4415907208, 0.9802616897
1081.7729908865, 0.9804141696
1082.1043910522, 0.9805666495
1082.4357912179, 0.9805677781
1082.7671913836, 0.9805689065
1083.0985915493, 0.9807213865
1083.4299917149, 0.9808738664
1083.7613918807, 0.9810263463
1083.7613918807, 0.9811776977
1083.7613918807, 0.981329049
1084.0927920464, 0.9814815288
1084.4241922121, 0.9816340088
1084.7555923778, 0.9817864887
1085.0869925435, 0.9819389686
1085.0869925435, 0.98209032
1085.4183927092, 0.9822427998
1085.4183927092, 0.9823941511
1085.7497928749, 0.9823952798
1085.7497928749, 0.9825466311
1086.0811930406, 0.982699111
1086.4125932063, 0.9828515909
1086.743993372, 0.9830040707
1087.0753935377, 0.9831565508
1087.4067937034, 0.9831576793
1087.738193869, 0.9833101592
1088.0695940348, 0.983462639
1088.4009942005, 0.9834637677
1088.7323943661, 0.9834648962
1088.7323943661, 0.9836162476
1089.0637945319, 0.9836173761
1089.3951946976, 0.9837698559
1089.7265948633, 0.9837709846
1090.057995029, 0.9839234645
1090.3893951947, 0.983924593
1090.7207953604, 0.9840770729
1091.0521955261, 0.9840782015
1091.3835956918, 0.9842306814
1091.7149958575, 0.9842318099
1092.0463960232, 0.9843842898
1092.3777961889, 0.9843854184
1092.7091963546, 0.9845378983
1093.0405965203, 0.9846903782
1093.371996686, 0.9848428581
1093.7033968517, 0.984995338
1094.0347970174, 0.9851478179
1094.3661971831, 0.9853002977
1094.6975973488, 0.9854527777
1095.0289975145, 0.9856052576
1095.3603976802, 0.9857577375
1095.6917978459, 0.9859102173
1096.0231980116, 0.9860626973
1096.3545981773, 0.9862151772
1096.685998343, 0.9863676571
1097.0173985087, 0.9863687856
1097.3487986744, 0.9863699142
1097.6801988401, 0.9863710428
1098.0115990058, 0.9863721713
1098.3429991715, 0.9863732999
1098.6743993372, 0.9863744284
1099.0057995029, 0.986375557
1099.3371996686, 0.9863766856
1099.6685998343, 0.9862264628
1100.0, 0.9862275913
